2                                          % NUMBER OF ATOMS
C 6.0D+0 12.0D+00                          % ATOM TYPE 1, ATOMIC NUMBER & ATOMIC MASS NUMBER
C 6.0D+0 12.0D+00                          % ATOM TYPE 2, ATOMIC NUMBER & ATOMIC MASS NUMBER
-75.57775492D+00                           % ZERO OF ENERGY(Eh): TWO C ATOMS INFINITELY SEPARATED
DIRECTFIT                                  % JOB TYPE
OPTBASNONLIN                               % OPTIMIZATION TYPE
6 515                                      % DEG. OF POLYNOMIAL & # OF AB INITIO POINTS + EXP. DATA FOR CALIBRATION 
4 36                                       % Y1: DEG. OF CONTRACTION & # OF CALC. POINTS FOR CALIBRATION
0.13867733928130450138382911973167211D+01  % BASIS SET GUESS COEFFS. : c1
-0.64289118476439321980819840973708779D+00                           % c2
0.40942179655140034655325109724799404D-01                            % c3
-0.57281648090529608907672809436917305D+03                           % c4
0.13187746131156781181914539047284052D+01                            % gamma1
0.95056737531550739017660589524894021D+00                            % gamma2
0.10883437499758208399924797049607150D+01                            % gamma3
0.76503371635888728352625776096829213D+00                            % gamma4
0.24037921167348930140406082500703633D+01                            % Rref
0.79989287546252196836604753116262145D+00  % BASIS SET GUESS COEFFS. : zeta
  1.5 -74.84254754 1.0                     % AB INITIO POINTS FOR CALIBRATION Y1: R(a0), E(Eh) & WEIGHT
  1.6 -75.12824147 1.0
  1.7 -75.34012867 1.0
  1.8 -75.49524397 1.0
  1.9 -75.60696676 1.0
  2.0 -75.68566291 1.0
  2.1 -75.73931145 1.0
  2.2 -75.77403754 1.0
  2.3 -75.79454113 1.0
  2.4 -75.80443217 1.0
  2.5 -75.80648840 1.0
  2.6 -75.80285093 1.0
  2.7 -75.79517085 1.0
  2.8 -75.78471872 1.0
  2.9 -75.77246849 1.0
  3.0 -75.75915889 1.0
  3.1 -75.74534460 1.0
  3.2 -75.73143200 1.0
  3.3 -75.71771630 1.0
  3.4 -75.70440485 1.0
  3.5 -75.69163974 1.0
  3.6 -75.67951547 1.0
  3.7 -75.66809276 1.0
  3.8 -75.65740914 1.0
  3.9 -75.64748671 1.0
  4.0 -75.63833749 1.0
  4.5 -75.60422544 1.0
  5.0 -75.58787906 1.0
  6.0 -75.58045488 1.0
  7.0 -75.57899344 1.0
  8.0 -75.57837427 1.0
  9.0 -75.57808353 1.0
 10.0 -75.57794160 1.0
 20.0 -75.57775930 1.0
 50.0 -75.57775502 1.0
100.0 -75.57775492 1.0                    % AB INITIO POINTS FOR CALIBRATION Y1: R(a0), E(Eh) & WEIGHT
0.69779598860494382317476436128345085D-01 % GUESS COEFFS. OF POLYNOMIAL : C1
0.35179246489643316297968311801014352D-01                               % C2
0.16105394228050198823787297897069948D-01                               % C3
0.91858718204129736345509016359756060D-02                               % C4
0.86247737125038827915579631167020125D-02                               % C5
-0.16870856655160099829560138573469885D-02 % GUESS COEFFS. OF POLYNOMIAL: C6
