3                         % NUMBER OF ATOMS
C 6.0D+0 12.0D+00         % ATOM TYPE 1, ATOMIC NUMBER & ATOMIC MASS NUMBER
C 6.0D+0 12.0D+00         % ATOM TYPE 2, ATOMIC NUMBER & ATOMIC MASS NUMBER
C 6.0D+0 12.0D+00         % ATOM TYPE 3, ATOMIC NUMBER & ATOMIC MASS NUMBER
-113.36656732D+00         % ZERO OF ENERGY(Eh) - THREE C ATOMS INFINITELY SEPARATED
A3                        % MOLECULE TYPE
OPTBASIS                  % JOB TYPE
FIXNONLIN                 % OPTIMIZATION TYPE
10 37                     % Y1: DEG. OF CONTRACTION & # OF CALC. POINTS FOR CALIBRATION 
-0.240050076115035438D+02 % BASIS SET GUESS COEFFS. : c1
 0.476851723469529460D+02                           % c2
-0.821596945341028451D+00                           % c3
-0.486395423030267438D+02                           % c4
-0.880836702134255717D-01                           % c5
 0.338333478791137381D+02                           % c6
-0.902519174963892334D+00                           % c7
-0.136216675241120111D+01                           % c8
-0.129048629393196346D+01                           % c9
-0.576805635094204481D+05                           % c10
 0.717093086143634650D+00                           % gamma1
 0.916996767625680942D+00                           % gamma2
 0.317472344331482415D+01                           % gamma3
 0.715150504635451156D+00                           % gamma4
 0.487747499897718650D+00                           % gamma5
 0.704207663608310663D+00                           % gamma6
 0.194305609946775459D+01                           % gamma7
 0.151958122736410184D+01                           % gamma8
 0.103831195921518504D+01                           % gamma9
 0.416361078254035510D+00                           % gamma10
 0.115881141634893425D+01                           % Rref
 0.129603706020916043D+01 % BASIS SET GUESS COEFFS. : zeta
1.50000000     1.50000000     1.50000000  -111.26681794     0.25000000  % AB INITIO POINTS FOR CALIBRATION OF Y1=Y2=Y3: R1(a0), R2(a0), R3(a0), E(Eh) & WEIGHT
1.75000000     1.75000000     1.75000000  -112.77137401     0.25000000  
2.00000000     2.00000000     2.00000000  -113.46008454     5.00000000  
2.25000000     2.25000000     2.25000000  -113.74849397    10.00000000  
2.50000000     2.50000000     2.50000000  -113.84159939    10.00000000  
2.75000000     2.75000000     2.75000000  -113.83724015    10.00000000  
3.00000000     3.00000000     3.00000000  -113.78568338     5.00000000  
3.25000000     3.25000000     3.25000000  -113.72489720     5.00000000  
3.50000000     3.50000000     3.50000000  -113.66362027     1.00000000  
3.75000000     3.75000000     3.75000000  -113.60696323     1.00000000  
4.00000000     4.00000000     4.00000000  -113.55656103     5.00000000  
4.50000000     4.50000000     4.50000000  -113.47545622     1.00000000  
4.75000000     4.75000000     4.75000000  -113.44460938     1.00000000  
5.00000000     5.00000000     5.00000000  -113.42016857     5.00000000  
5.25000000     5.25000000     5.25000000  -113.40210569     1.00000000  
5.50000000     5.50000000     5.50000000  -113.38996625     1.00000000  
5.75000000     5.75000000     5.75000000  -113.38230464     1.00000000  
6.25000000     6.25000000     6.25000000  -113.37272533     1.00000000  
6.50000000     6.50000000     6.50000000  -113.37134772     1.00000000  
6.75000000     6.75000000     6.75000000  -113.37034100     1.00000000  
7.00000000     7.00000000     7.00000000  -113.36957920     1.00000000  
7.25000000     7.25000000     7.25000000  -113.36898960     1.00000000  
7.50000000     7.50000000     7.50000000  -113.36852584     1.00000000  
7.75000000     7.75000000     7.75000000  -113.36815863     1.00000000  
8.00000000     8.00000000     8.00000000  -113.36786900     1.00000000  
8.25000000     8.25000000     8.25000000  -113.36763910     1.00000000  
8.50000000     8.50000000     8.50000000  -113.36745890     1.00000000  
9.00000000     9.00000000     9.00000000  -113.36714119     1.00000000  
9.25000000     9.25000000     9.25000000  -113.36705858     1.00000000  
9.50000000     9.50000000     9.50000000  -113.36700744     1.00000000  
9.75000000     9.75000000     9.75000000  -113.36694735     1.00000000  
10.00000000   10.00000000    10.00000000  -113.36689645    10.00000000  
12.50000000   12.50000000    12.50000000  -113.36657500    10.00000000  
16.00000000   16.00000000    16.00000000  -113.3665895     10.00000000  
20.00000000   20.00000000    20.00000000  -113.36659223    10.00000000  
50.00000000   50.00000000    50.00000000  -113.36657332    10.00000000  
100.0000000  100.00000000   100.00000000  -113.36656732    10.00000000  
